--------------------- MoorDyn steady currents File ----------------------------------
Tabulated file with the water currents components
z (m), ux (m/s), uy (m/s), uz (m/s)
-51.0 0.0 0 0
-50.0 0.0 0 0
-49.0 0.03125000000000003 0 0
-48.0 0.06250000000000006 0 0
-47.0 0.09374999999999994 0 0
-46.0 0.12499999999999997 0 0
-45.0 0.15625 0 0
-44.0 0.18750000000000003 0 0
-43.0 0.21875000000000006 0 0
-42.0 0.24999999999999994 0 0
-41.0 0.28125 0 0
-40.0 0.3125 0 0
-39.0 0.34375 0 0
-38.0 0.37500000000000006 0 0
-37.0 0.40624999999999994 0 0
-36.0 0.4375 0 0
-35.0 0.46875 0 0
-34.0 0.5 0 0
-33.0 0.53125 0 0
-32.0 0.5625 0 0
-31.0 0.59375 0 0
-30.0 0.625 0 0
-29.0 0.65625 0 0
-28.0 0.6875 0 0
-27.0 0.71875 0 0
-26.0 0.75 0 0
-25.0 0.78125 0 0
-24.0 0.8125 0 0
-23.0 0.84375 0 0
-22.0 0.875 0 0
-21.0 0.90625 0 0
-20.0 0.9375 0 0
-19.0 0.96875 0 0
-18.0 1.0 0 0
-17.0 1.03125 0 0
-16.0 1.0625 0 0
-15.0 1.09375 0 0
-14.0 1.125 0 0
-13.0 1.15625 0 0
-12.0 1.1875 0 0
-11.0 1.21875 0 0
-10.0 1.25 0 0
-9.0 1.1111111111111112 0 0
-8.0 0.9722222222222222 0 0
-7.0 0.8333333333333335 0 0
-6.0 0.6944444444444444 0 0
-5.0 0.5555555555555556 0 0
-4.0 0.41666666666666674 0 0
-3.0 0.2777777777777778 0 0
-2.0 0.13888888888888895 0 0
-1.0 0.0 0 0
0.0 0.0 0 0
1.0 0.0 0 0
2.0 0.0 0 0
3.0 0.0 0 0
4.0 0.0 0 0
5.0 0.0 0 0
